time [s]	total_relief [m]	mean incision[m/s]	mean diffusion [m/s]	energy expenditure [J/s]
0.000000000000000000e+00	9.995364863036807490e-01	1.195594383525655263e-13	0.000000000000000000e+00	1.323144526809510171e+04
3.155760000000000000e+10	9.928025945968774746e-01	1.220213959217893715e-13	0.000000000000000000e+00	1.354755763877187201e+04
6.311520000000000000e+10	9.964453059583777694e-01	1.254830313579691777e-13	0.000000000000000000e+00	1.394077178410383021e+04
9.467280000000000000e+10	1.020084894718358282e+00	1.293180475709916371e-13	0.000000000000000000e+00	1.439363786324605462e+04
1.262304000000000000e+11	1.061128167104030684e+00	1.336661290714980195e-13	0.000000000000000000e+00	1.506354261718499583e+04
1.577880000000000000e+11	1.128436397292804649e+00	1.379108377457331950e-13	0.000000000000000000e+00	1.567513720728214139e+04
1.893456000000000000e+11	1.214316461881124631e+00	1.421717144287977734e-13	0.000000000000000000e+00	1.629390245092072291e+04
2.209032000000000000e+11	1.318397353890014223e+00	1.478413910045892139e-13	0.000000000000000000e+00	1.761533228256046641e+04
2.524608000000000000e+11	1.445020331283576986e+00	1.549334336958973799e-13	0.000000000000000000e+00	1.918644344545714193e+04
2.840184000000000000e+11	1.664328399181915330e+00	1.613447605011938257e-13	0.000000000000000000e+00	2.052917799282332635e+04
3.155760000000000000e+11	1.934081749247974713e+00	1.679096217779703836e-13	0.000000000000000000e+00	2.176511414510955001e+04
3.471336000000000000e+11	2.322074917536411931e+00	1.733739783332929505e-13	0.000000000000000000e+00	2.273854710568191513e+04
3.786912000000000000e+11	2.737240911674028609e+00	1.785576595458557462e-13	0.000000000000000000e+00	2.359951545873060240e+04
4.102488000000000000e+11	3.178365334577026857e+00	1.838308374129733083e-13	0.000000000000000000e+00	2.445814234605835736e+04
4.418064000000000000e+11	3.632371508514539826e+00	1.888905454907648210e-13	0.000000000000000000e+00	2.531658861681198687e+04
4.733640000000000000e+11	4.109987809110252854e+00	1.952116411112638798e-13	0.000000000000000000e+00	2.673468831411387873e+04
5.049216000000000000e+11	4.610185889390248093e+00	2.007020017999035493e-13	0.000000000000000000e+00	2.780154154325286436e+04
5.364792000000000000e+11	5.131982228020286030e+00	2.059405374968755416e-13	0.000000000000000000e+00	2.868759668878834782e+04
5.680368000000000000e+11	5.659844324879367505e+00	2.120142702369055811e-13	0.000000000000000000e+00	2.995362657475283049e+04
5.995944000000000000e+11	6.207556924774401352e+00	2.196275456002168742e-13	0.000000000000000000e+00	3.198122367866809873e+04
6.311520000000000000e+11	6.774278621406821799e+00	2.260057503829775388e-13	0.000000000000000000e+00	3.348842889706771530e+04
6.627096000000000000e+11	7.375357867382264843e+00	2.314307360100259532e-13	0.000000000000000000e+00	3.446046161276097700e+04
6.942672000000000000e+11	7.993642054214308956e+00	2.391440739958031488e-13	0.000000000000000000e+00	3.639046903242302506e+04
7.258248000000000000e+11	8.628382035936738248e+00	2.459003359676075107e-13	0.000000000000000000e+00	3.789926891214701755e+04
7.573824000000000000e+11	9.278861321544997764e+00	2.523649891443439269e-13	0.000000000000000000e+00	3.930829386228552903e+04
7.889400000000000000e+11	9.944579976442172509e+00	2.589917521734945981e-13	0.000000000000000000e+00	4.075489930028285016e+04
8.204976000000000000e+11	1.062476967323223320e+01	2.670181976939026231e-13	0.000000000000000000e+00	4.322175513732730906e+04
8.520552000000000000e+11	1.131874717648422290e+01	2.727762327190145768e-13	0.000000000000000000e+00	4.430946166156396794e+04
8.836128000000000000e+11	1.202591236615727155e+01	2.789861537469516767e-13	0.000000000000000000e+00	4.555445436902963411e+04
9.151704000000000000e+11	1.274569126814932574e+01	2.863472004940471876e-13	0.000000000000000000e+00	4.743476048138294573e+04
9.467280000000000000e+11	1.347753491488864341e+01	2.939735451291969836e-13	0.000000000000000000e+00	4.935028105167904141e+04
9.782856000000000000e+11	1.422091825558514699e+01	3.038745544856596008e-13	0.000000000000000000e+00	5.251259471178198146e+04
1.009843200000000000e+12	1.497533911397717432e+01	3.099276380179168177e-13	0.000000000000000000e+00	5.369384036920462677e+04
1.041400800000000000e+12	1.574031719150349318e+01	3.162242022356747605e-13	0.000000000000000000e+00	5.505318768559211458e+04
1.072958400000000000e+12	1.651539311392067333e+01	3.228271561021121052e-13	0.000000000000000000e+00	5.640741150088221912e+04
1.104516000000000000e+12	1.730012751947225169e+01	3.317218243631813613e-13	0.000000000000000000e+00	5.928957702044262987e+04
1.136073600000000000e+12	1.809410018679859888e+01	3.395973966465209399e-13	0.000000000000000000e+00	6.148985667970007489e+04
1.167631200000000000e+12	1.889690920085534387e+01	3.475458945493051417e-13	0.000000000000000000e+00	6.373252660988627758e+04
1.199188800000000000e+12	1.970817015518378668e+01	3.565506420663764008e-13	0.000000000000000000e+00	6.646660470091259049e+04
1.230746400000000000e+12	2.052751538894879957e+01	3.635982235356582477e-13	0.000000000000000000e+00	6.817807787896304217e+04
1.262304000000000000e+12	2.135459325722892032e+01	3.715094813793335588e-13	0.000000000000000000e+00	7.058735963171590993e+04
1.293861600000000000e+12	2.218906743310931162e+01	3.809137243503877304e-13	0.000000000000000000e+00	7.370211104270302167e+04
1.325419200000000000e+12	2.305257663519040534e+01	3.899999978237141164e-13	0.000000000000000000e+00	7.642833263458604051e+04
1.356976800000000000e+12	2.394361031513311744e+01	3.967139131804272100e-13	0.000000000000000000e+00	7.780792246518396132e+04
1.388534400000000000e+12	2.483948999018845072e+01	4.054258776668446957e-13	0.000000000000000000e+00	8.037598023657281010e+04
1.420092000000000000e+12	2.573999433801825276e+01	4.138184819580968759e-13	0.000000000000000000e+00	8.297550436397617159e+04
1.451649600000000000e+12	2.664491216882496261e+01	4.209267603054967050e-13	0.000000000000000000e+00	8.438842588361485105e+04
1.483207200000000000e+12	2.755404196122433191e+01	4.304929181912088354e-13	0.000000000000000000e+00	8.733543925814963586e+04
1.514764800000000000e+12	2.846719141938304176e+01	4.380132936313872294e-13	0.000000000000000000e+00	8.901692206391559739e+04
1.546322400000000000e+12	2.936199059589937832e+01	4.477962873728754038e-13	0.000000000000000000e+00	9.204827446512346796e+04
1.577880000000000000e+12	3.032671203030960783e+01	4.597376328320322613e-13	0.000000000000000000e+00	9.647971089660069265e+04
1.609437600000000000e+12	3.129297527746282981e+01	4.668219419153007142e-13	0.000000000000000000e+00	9.796741435657012335e+04
1.640995200000000000e+12	3.226070712728812850e+01	4.737956313556085712e-13	0.000000000000000000e+00	9.944967963518074248e+04
1.672552800000000000e+12	3.322983787165118486e+01	4.822078763749001002e-13	0.000000000000000000e+00	1.015098983092374401e+05
1.704110400000000000e+12	3.420030113659937854e+01	4.892563172710644491e-13	0.000000000000000000e+00	1.029892540253176703e+05
1.735668000000000000e+12	3.517203372264836503e+01	4.967367169775626662e-13	0.000000000000000000e+00	1.047691414092536288e+05
1.767225600000000000e+12	3.616597585956100147e+01	5.044461435287094272e-13	0.000000000000000000e+00	1.065499209238166659e+05
1.798783200000000000e+12	3.718063525893542476e+01	5.116117069732028923e-13	0.000000000000000000e+00	1.080147219459029438e+05
1.830340800000000000e+12	3.819440951100186510e+01	5.193638354229936220e-13	0.000000000000000000e+00	1.097997883017888671e+05
1.861898400000000000e+12	3.920734358702623723e+01	5.303419904826055610e-13	0.000000000000000000e+00	1.141519927789701906e+05
1.893456000000000000e+12	4.021948020129143231e+01	5.432260490391084893e-13	0.000000000000000000e+00	1.192801058900606295e+05
1.925013600000000000e+12	4.123085992412599410e+01	5.511295185194973377e-13	0.000000000000000000e+00	1.211643777904507151e+05
1.956571200000000000e+12	4.224152128927777738e+01	5.596648797272048713e-13	0.000000000000000000e+00	1.230540285882872558e+05
1.988128800000000000e+12	4.325150089591551250e+01	5.676829048951984390e-13	0.000000000000000000e+00	1.249395925426316971e+05
2.019686400000000000e+12	4.426082682992357320e+01	5.764582872212892781e-13	0.000000000000000000e+00	1.271780244611103699e+05
2.051244000000000000e+12	4.526951770398663655e+01	5.840730279353337918e-13	0.000000000000000000e+00	1.290767142694935173e+05
2.082801600000000000e+12	4.629763538772814968e+01	5.924382423767690549e-13	0.000000000000000000e+00	1.309879290371562092e+05
2.114359200000000000e+12	4.732414779303244501e+01	6.029359565571958578e-13	0.000000000000000000e+00	1.354867795904738305e+05
2.145916800000000000e+12	4.836872576490056019e+01	6.105843858159489461e-13	0.000000000000000000e+00	1.370589691445021017e+05
2.177474400000000000e+12	4.941081315807039687e+01	6.232355495418011458e-13	0.000000000000000000e+00	1.420257058569571236e+05
2.209032000000000000e+12	5.045053967493385016e+01	6.308339195174708237e-13	0.000000000000000000e+00	1.440138555652649957e+05
2.240589600000000000e+12	5.150712746383329943e+01	6.410948459162831485e-13	0.000000000000000000e+00	1.471759261230760312e+05
2.272147200000000000e+12	5.257924932874419710e+01	6.502072236647196842e-13	0.000000000000000000e+00	1.495769815291135747e+05
2.303704800000000000e+12	5.364730800060002025e+01	6.595230526714828269e-13	0.000000000000000000e+00	1.519980538355437748e+05
2.335262400000000000e+12	5.471152262227290919e+01	6.687301793890170173e-13	0.000000000000000000e+00	1.544196986635294161e+05
2.366820000000000000e+12	5.577210054669671990e+01	6.772743316867159994e-13	0.000000000000000000e+00	1.564501894179599185e+05
2.398377600000000000e+12	5.682923797151608625e+01	6.870595846953870492e-13	0.000000000000000000e+00	1.593216178671892558e+05
2.429935200000000000e+12	5.790119379983677561e+01	6.967662366425594583e-13	0.000000000000000000e+00	1.622140775330189790e+05
2.461492800000000000e+12	5.896902784713948620e+01	7.064453674002841198e-13	0.000000000000000000e+00	1.647063020402715774e+05
2.493050400000000000e+12	6.003296626116282653e+01	7.150190909253020011e-13	0.000000000000000000e+00	1.663371537992076483e+05
2.524608000000000000e+12	6.109322281331355242e+01	7.237647795400299338e-13	0.000000000000000000e+00	1.684022390207463177e+05
2.556165600000000000e+12	6.214999957630152494e+01	7.398328864226104189e-13	0.000000000000000000e+00	1.766906452022423618e+05
2.587723200000000000e+12	6.320348756466292173e+01	7.499767612837933265e-13	0.000000000000000000e+00	1.797325119347219006e+05
2.619280800000000000e+12	6.425386734020440826e+01	7.642175375653578114e-13	0.000000000000000000e+00	1.859889087738967501e+05
2.650838400000000000e+12	6.531867855395596223e+01	7.743644886993885730e-13	0.000000000000000000e+00	1.891068571418870706e+05
2.682396000000000000e+12	6.637970056504190097e+01	7.836671309925078154e-13	0.000000000000000000e+00	1.913187555479211733e+05
2.713953600000000000e+12	6.743714480610177020e+01	7.930477590372862054e-13	0.000000000000000000e+00	1.944768877069972514e+05
2.745511200000000000e+12	6.849121094659544440e+01	8.031249195282658110e-13	0.000000000000000000e+00	1.971851011864043248e+05
2.777068800000000000e+12	6.954208754752542632e+01	8.123064951759593052e-13	0.000000000000000000e+00	1.994201155358714459e+05
2.808626400000000000e+12	7.058995267970952625e+01	8.229982113268531209e-13	0.000000000000000000e+00	2.031249329955092689e+05
2.840184000000000000e+12	7.168452779209647474e+01	8.331702431066841211e-13	0.000000000000000000e+00	2.058707946843804093e+05
2.871741600000000000e+12	7.277340184675159662e+01	8.418463618653592186e-13	0.000000000000000000e+00	2.076277063020070491e+05
2.903299200000000000e+12	7.385690779174674958e+01	8.538493305524412345e-13	0.000000000000000000e+00	2.129317699073104304e+05
2.934856800000000000e+12	7.502692919962325391e+01	8.678325931573693498e-13	0.000000000000000000e+00	2.193361590282124816e+05
2.966414400000000000e+12	7.625650366095801758e+01	8.763758932114858325e-13	0.000000000000000000e+00	2.211510252349566144e+05
2.997972000000000000e+12	7.747046488841726841e+01	8.867949821115623753e-13	0.000000000000000000e+00	2.245235143796354532e+05
3.029529600000000000e+12	7.866986085530122352e+01	9.019148951410204604e-13	0.000000000000000000e+00	2.316157913119795849e+05
3.061087200000000000e+12	7.985566924390039389e+01	9.196487982059705988e-13	0.000000000000000000e+00	2.419809139629073034e+05
3.092644800000000000e+12	8.102880216051582352e+01	9.303315402382196714e-13	0.000000000000000000e+00	2.455162329104894598e+05
3.124202400000000000e+12	8.219011053418998358e+01	9.423609056684849141e-13	0.000000000000000000e+00	2.496195434571141668e+05
3.155760000000000000e+12	8.334038822036585259e+01	9.578014069373893328e-13	0.000000000000000000e+00	2.565300880451928824e+05
3.187317600000000000e+12	8.448037582926795608e+01	9.677047361244401567e-13	0.000000000000000000e+00	2.590604050922739261e+05
3.218875200000000000e+12	8.561076429747171801e+01	9.903890667387727944e-13	0.000000000000000000e+00	2.761088903577873716e+05
3.250432800000000000e+12	8.673219821988820399e+01	1.006731395545236878e-12	0.000000000000000000e+00	2.838552532795231091e+05
3.281990400000000000e+12	8.784527895823640620e+01	1.016779076547372306e-12	0.000000000000000000e+00	2.859957769290029537e+05
3.313548000000000000e+12	8.895056754099647378e+01	1.025927401533112991e-12	0.000000000000000000e+00	2.881207962564709014e+05
3.345105600000000000e+12	9.004858736883173265e+01	1.034903642340115727e-12	0.000000000000000000e+00	2.902475387916193577e+05
3.376663200000000000e+12	9.112759831341254824e+01	1.045638080930779045e-12	0.000000000000000000e+00	2.941182784049274633e+05
3.408220800000000000e+12	9.220116625353288953e+01	1.057990009188085983e-12	0.000000000000000000e+00	2.980167027305898955e+05
3.439778400000000000e+12	9.326965293813454139e+01	1.076629757516595563e-12	0.000000000000000000e+00	3.067558872052055085e+05
3.471336000000000000e+12	9.433339612663286289e+01	1.090911361916968351e-12	0.000000000000000000e+00	3.119530229991560918e+05
3.502893600000000000e+12	9.538056848007063593e+01	1.107387321513206385e-12	0.000000000000000000e+00	3.202359228466100758e+05
3.534451200000000000e+12	9.642445074159637386e+01	1.117484999471569175e-12	0.000000000000000000e+00	3.224503770017006900e+05
3.566008800000000000e+12	9.746525937469898793e+01	1.127645076264951745e-12	0.000000000000000000e+00	3.246524567080293200e+05
3.597566400000000000e+12	9.850319665373187661e+01	1.138445688888491114e-12	0.000000000000000000e+00	3.268486013306805398e+05
3.629124000000000000e+12	9.953845159417846844e+01	1.149054957569179270e-12	0.000000000000000000e+00	3.315598832532283268e+05
3.660681600000000000e+12	1.005712008219192768e+02	1.159324686962217927e-12	0.000000000000000000e+00	3.344001191405032296e+05
3.692239200000000000e+12	1.016135576400831724e+02	1.171199356946884247e-12	0.000000000000000000e+00	3.372502376655641128e+05
3.723796800000000000e+12	1.026646892532118613e+02	1.182757167069670314e-12	0.000000000000000000e+00	3.407383824905967340e+05
3.755354400000000000e+12	1.037121945587022367e+02	1.194609142577728366e-12	0.000000000000000000e+00	3.442463650967967114e+05
3.786912000000000000e+12	1.049036188150220283e+02	1.206759058610822198e-12	0.000000000000000000e+00	3.484130433937748894e+05
3.818469600000000000e+12	1.060950911337223346e+02	1.227377863897283492e-12	0.000000000000000000e+00	3.592748999572097673e+05
3.850027200000000000e+12	1.072707711154156129e+02	1.237956752763982466e-12	0.000000000000000000e+00	3.615166908401509863e+05
3.881584800000000000e+12	1.084319426567611941e+02	1.250977497682635498e-12	0.000000000000000000e+00	3.657791234800310340e+05
3.913142400000000000e+12	1.095797853554432209e+02	1.262698908577393051e-12	0.000000000000000000e+00	3.687003552785232896e+05
3.944700000000000000e+12	1.107153829832617191e+02	1.278233153206721647e-12	0.000000000000000000e+00	3.743744407544885762e+05
3.976257600000000000e+12	1.118482396092075675e+02	1.290960630453804678e-12	0.000000000000000000e+00	3.773096006561032264e+05
4.007815200000000000e+12	1.129699872222452797e+02	1.302585682340156533e-12	0.000000000000000000e+00	3.795432647013660171e+05
4.039372800000000000e+12	1.140815360863489616e+02	1.315229192738498647e-12	0.000000000000000000e+00	3.838960153595447191e+05
4.070930400000000000e+12	1.151837219615567562e+02	1.327776610138868160e-12	0.000000000000000000e+00	3.875466398160817334e+05
4.102488000000000000e+12	1.162773122021977628e+02	1.339203741353269347e-12	0.000000000000000000e+00	3.897729098041736288e+05
4.134045600000000000e+12	1.173630113559612909e+02	1.353246168705750405e-12	0.000000000000000000e+00	3.948795678418138996e+05
4.165603200000000000e+12	1.184414663046652549e+02	1.368514368510493741e-12	0.000000000000000000e+00	4.007448299479728448e+05
4.197160800000000000e+12	1.195132709842379057e+02	1.381080335835860435e-12	0.000000000000000000e+00	4.029787222570669837e+05
4.228718400000000000e+12	1.205789707183554640e+02	1.392914184080488423e-12	0.000000000000000000e+00	4.059383208035011194e+05
4.260276000000000000e+12	1.216390661973592699e+02	1.405268022048766593e-12	0.000000000000000000e+00	4.096549859908480430e+05
4.291833600000000000e+12	1.227018821637881416e+02	1.423269515194346949e-12	0.000000000000000000e+00	4.186399426732124994e+05
4.323391200000000000e+12	1.237592919066566992e+02	1.435548732400923627e-12	0.000000000000000000e+00	4.208954540312447934e+05
4.354948800000000000e+12	1.248120856126983682e+02	1.456488335880907685e-12	0.000000000000000000e+00	4.337818203308583470e+05
4.386506400000000000e+12	1.258989456034511676e+02	1.472676297139777893e-12	0.000000000000000000e+00	4.399081985026754555e+05
4.418064000000000000e+12	1.269708036948748031e+02	1.505042198166845861e-12	0.000000000000000000e+00	4.677244304087445489e+05
4.449621600000000000e+12	1.280364159521495253e+02	1.518920298919619044e-12	0.000000000000000000e+00	4.717327293657729169e+05
4.481179200000000000e+12	1.290963129487357435e+02	1.532750346916000779e-12	0.000000000000000000e+00	4.749799201018213644e+05
4.512736800000000000e+12	1.301509802397391979e+02	1.545125026854512535e-12	0.000000000000000000e+00	4.774319145113080740e+05
4.544294400000000000e+12	1.312008621817546157e+02	1.559834443544181842e-12	0.000000000000000000e+00	4.814576610315407161e+05
4.575852000000000000e+12	1.322463654285857615e+02	1.580408827041821889e-12	0.000000000000000000e+00	4.934586888737270492e+05
4.607409600000000000e+12	1.332878621303453315e+02	1.598615516940595872e-12	0.000000000000000000e+00	5.007757857869552681e+05
4.638967200000000000e+12	1.343256928611030787e+02	1.612309115854053115e-12	0.000000000000000000e+00	5.032703624795766082e+05
4.670524800000000000e+12	1.353601692981163467e+02	1.631134212229556718e-12	0.000000000000000000e+00	5.139138080618230742e+05
4.702082400000000000e+12	1.363915766737211470e+02	1.643649189407068643e-12	0.000000000000000000e+00	5.164385109398785862e+05
4.733640000000000000e+12	1.374057646931176748e+02	1.658763614680973118e-12	0.000000000000000000e+00	5.214253582414669800e+05
4.765197600000000000e+12	1.384186253345100965e+02	1.672220917258773133e-12	0.000000000000000000e+00	5.239403862720765173e+05
4.796755200000000000e+12	1.394302702620053651e+02	1.689622525656377578e-12	0.000000000000000000e+00	5.297779602579033235e+05
4.828312800000000000e+12	1.404480066614529505e+02	1.705087372556209039e-12	0.000000000000000000e+00	5.348040369404141093e+05
4.859870400000000000e+12	1.414641090339028437e+02	1.721868029555525854e-12	0.000000000000000000e+00	5.424115987788913772e+05
4.891428000000000000e+12	1.424787156807719555e+02	1.736059078258062330e-12	0.000000000000000000e+00	5.449300900469989283e+05
4.922985600000000000e+12	1.434919532511884199e+02	1.751003913215211688e-12	0.000000000000000000e+00	5.482944001312900800e+05
4.954543200000000000e+12	1.445039377237562519e+02	1.766336078776413196e-12	0.000000000000000000e+00	5.533992865565272514e+05
4.986100800000000000e+12	1.455468745409779103e+02	1.781397212467377528e-12	0.000000000000000000e+00	5.567734841269413009e+05
